Depth,GR_RAW,TH232_RAW,K40_RAW,U238_RAW,MAGNETIC_SUSCEPTIBILITY,EM_IND_RESISTIVITY,FLUID_CONDUCTIVITY,TEMP,AMBIENT_HEAT_PULSE_GW_FLOW#1,AMBIENT_SFM_GW_FLOW_(TOTAL)
M,APR,PPM,%,PPM,‘10e-3,OHM-M,US/CM,C,GPM (NEG=DOWN),GPM (NEG=DOWN)
0.837199999999993,135.454,0.0484595,1.62043,4.88618,,,,,,
0.839299999999992,135.454,0.0484595,1.62043,4.88618,,,,,,
0.841399999999991,136.378,0.727631,1.66504,4.63756,,,,,,
0.843499999999989,137.447,1.51318,1.71664,4.35,,,,,,
0.845599999999988,138.515,2.29873,1.76824,4.06243,,,,,,
0.847699999999987,139.584,3.0843,1.81984,3.77486,,,,,,
0.849799999999985,140.653,3.86985,1.87144,3.4873,,,,,,
0.851899999999984,141.721,4.65539,1.92303,3.19974,,,,,,
0.853999999999983,142.79,5.44094,1.97463,2.91217,,,,,,
0.856099999999981,143.859,6.22649,2.02623,2.62461,,,,,,
0.85819999999998,144.928,7.01204,2.07783,2.33705,,,,,,
0.860299999999979,145.996,7.79759,2.12943,2.04948,,,,,,
0.862399999999977,147.065,8.58316,2.18103,1.76191,,,,,,
0.864499999999976,148.134,9.36871,2.23263,1.47435,,,,,,
0.866599999999974,149.202,10.1543,2.28422,1.18678,,,,,,
0.868699999999973,150.271,10.9398,2.33582,0.899221,,,,,,
0.870799999999972,150.316,11.643,2.35276,0.85263,,,,,,
0.87289999999997,149.617,12.2864,2.34454,0.980934,,,,,,
0.874999999999969,148.918,12.9299,2.33632,1.10924,,,,,,
0.877099999999968,148.219,13.5733,2.3281,1.23755,,,,,,
0.879199999999966,147.521,14.2167,2.31988,1.36585,,,,,,
0.881299999999965,146.822,14.8601,2.31166,1.49415,,,,,,
0.883399999999964,146.123,15.5036,2.30344,1.62246,,,,,,
0.885499999999962,145.424,16.147,2.29522,1.75076,,,,,,
0.887599999999961,144.726,16.7904,2.287,1.87907,,,,,,
0.88969999999996,144.027,17.4338,2.27878,2.00738,,,,,,
0.891799999999958,143.328,18.0773,2.27056,2.13568,,,,,,
0.893899999999957,142.629,18.7207,2.26234,2.26398,,,,,,
0.895999999999956,141.931,19.3641,2.25412,2.39229,,,,,,
0.898099999999954,141.232,20.0075,2.2459,2.52059,,,,,,
0.900199999999953,141.491,20.7043,2.21718,3.0326,,,,,,
0.902299999999952,144.045,21.5288,2.13931,4.46467,,,,,,
0.90439999999995,146.6,22.3533,2.06144,5.89677,,,,,,
0.906499999999949,149.154,23.1779,1.98357,7.32884,,,,,,
0.908599999999947,151.709,24.0024,1.9057,8.7609,,,,,,
0.910699999999946,154.264,24.8269,1.82783,10.193,,,,,,
0.912799999999945,156.818,25.6515,1.74997,11.625,,,,,,
0.914899999999943,159.373,26.476,1.6721,13.0571,,,,,,
0.916999999999942,161.927,27.3005,1.59422,14.4892,,,,,,
0.919099999999941,164.482,28.1251,1.51636,15.9213,,,,,,
0.92119999999994,167.037,28.9496,1.43849,17.3533,,,,,,
0.923299999999938,169.591,29.7741,1.36062,18.7854,,,,,,
0.925399999999937,172.146,30.5987,1.28275,20.2175,,,,,,
0.927499999999936,174.7,31.4232,1.20488,21.6495,,,,,,
0.929599999999934,177.216,32.2313,1.12787,23.0654,,,,,,
0.931699999999933,174.513,30.8246,1.16704,22.2958,,,,,,
0.933799999999932,171.81,29.418,1.2062,21.5262,,,,,,
0.93589999999993,169.107,28.0114,1.24536,20.7565,,,,,,
0.937999999999929,166.404,26.6047,1.28453,19.9869,,,,,,
0.940099999999928,163.701,25.1981,1.32369,19.2173,,,,,,
0.942199999999926,160.998,23.7915,1.36285,18.4477,,,,,,
0.944299999999925,158.295,22.3848,1.40202,17.678,,,,,,
0.946399999999924,155.592,20.9782,1.44118,16.9084,,,,,,
0.948499999999922,152.889,19.5715,1.48034,16.1388,,,,,,
0.950599999999921,150.186,18.1649,1.51951,15.3692,,,,,,
0.95269999999992,147.483,16.7583,1.55867,14.5996,,,,,,
0.954799999999918,144.78,15.3516,1.59783,13.8299,,,,,,
0.956899999999917,142.077,13.945,1.637,13.0603,,,,,,
0.958999999999916,139.374,12.5383,1.67616,12.2907,,,,,,
0.961099999999914,139.137,11.9643,1.68482,11.5598,,,,,,
0.963199999999913,139.849,11.7104,1.68176,10.8437,,,,,,
0.965299999999912,140.56,11.4565,1.67869,10.1277,,,,,,
0.96739999999991,141.272,11.2026,1.67562,9.4117,,,,,,
0.969499999999909,141.984,10.9487,1.67255,8.69568,,,,,,
0.971599999999907,142.696,10.6948,1.66948,7.97964,,,,,,
0.973699999999906,143.407,10.4409,1.66642,7.26362,,,,,,
0.975799999999905,144.119,10.187,1.66335,6.5476,,,,,,
0.977899999999903,144.831,9.93311,1.66028,5.83158,,,,,,
0.979999999999902,145.542,9.67922,1.65721,5.11556,,,,,,
0.982099999999901,146.254,9.42533,1.65414,4.39954,,,,,,
0.984199999999899,146.966,9.17143,1.65107,3.68352,,,,,,
0.986299999999898,147.678,8.91753,1.64801,2.96747,,,,,,
0.988399999999897,148.389,8.66364,1.64494,2.25145,,,,,,
0.990499999999895,148.769,8.58234,1.69604,1.84507,,,,,,
0.992599999999894,148.72,8.72331,1.8169,1.83743,,,,,,
0.994699999999893,148.671,8.86428,1.93776,1.82979,,,,,,
0.996799999999891,148.622,9.00525,2.05862,1.82215,,,,,,
0.99889999999989,148.573,9.14621,2.17948,1.81451,,,,,,
1.00099999999989,148.524,9.28718,2.30035,1.80687,,,,,,
1.00309999999989,148.475,9.42815,2.42121,1.79922,,,,,,
1.00519999999989,148.426,9.56912,2.54207,1.79158,,,,,,
1.00729999999988,148.378,9.71009,2.66294,1.78394,,,,,,
1.00939999999988,148.329,9.85106,2.7838,1.7763,,,,,,
1.01149999999988,148.28,9.99203,2.90466,1.76866,,,,,,
1.01359999999988,148.231,10.133,3.02552,1.76102,,,,,,
1.01569999999988,148.182,10.274,3.14638,1.75338,,,,,,
1.01779999999988,148.133,10.4149,3.26724,1.74574,,,,,,
1.01989999999988,147.954,10.4961,3.33798,1.87016,,,,,,
1.02199999999988,147.042,10.2391,3.12503,2.74203,,,,,,
1.02409999999987,146.129,9.98202,2.91208,3.61391,,,,,,
1.02619999999987,145.216,9.72496,2.69913,4.48578,,,,,,
1.02829999999987,144.303,9.46791,2.48617,5.35766,,,,,,
1.03039999999987,143.39,9.21085,2.27322,6.22953,,,,,,
1.03249999999987,142.477,8.95379,2.06027,7.10141,,,,,,
1.03459999999987,141.564,8.69672,1.8473,7.97333,,,,,,
1.03669999999987,140.652,8.43966,1.63435,8.84521,,,,,,
1.03879999999986,139.739,8.18261,1.4214,9.71708,,,,,,
1.04089999999986,138.826,7.92555,1.20845,10.589,,,,,,
1.04299999999986,137.913,7.66849,0.995496,11.4608,,,,,,
1.04509999999986,137,7.41143,0.782544,12.3327,,,,,,
1.04719999999986,136.087,7.15438,0.569592,13.2046,,,,,,
1.04929999999986,135.175,6.89732,0.35664,14.0765,,,,,,
1.05139999999986,135.339,6.88843,0.361793,13.8544,,,,,,
1.05349999999986,135.671,6.91828,0.400982,13.4617,,,,,,
1.05559999999985,136.003,6.94812,0.440172,13.0689,,,,,,
1.05769999999985,136.335,6.97797,0.479362,12.6762,,,,,,
1.05979999999985,136.667,7.00781,0.518552,12.2834,,,,,,
1.06189999999985,136.999,7.03766,0.557743,11.8907,,,,,,
1.06399999999985,137.331,7.0675,0.596933,11.4979,,,,,,
1.06609999999985,137.663,7.09735,0.636123,11.1052,,,,,,
1.06819999999985,137.995,7.12719,0.675313,10.7124,,,,,,
1.07029999999984,138.327,7.15704,0.714502,10.3197,,,,,,
1.07239999999984,138.659,7.18688,0.753692,9.92693,,,,,,
1.07449999999984,138.991,7.21673,0.792882,9.53418,,,,,,
1.07659999999984,139.323,7.24657,0.832071,9.14143,,,,,,
1.07869999999984,139.656,7.27642,0.871261,8.74869,,,,,,
1.08079999999984,140.068,7.87792,0.918585,8.27797,,,,,,
1.08289999999984,140.538,8.89362,0.971802,7.75077,,,,,,
1.08499999999984,141.009,9.90931,1.02502,7.22357,,,,,,
1.08709999999983,141.479,10.925,1.07824,6.69636,,,,,,
1.08919999999983,141.95,11.9408,1.13146,6.16913,,,,,,
1.09129999999983,142.42,12.9564,1.18467,5.64192,,,,,,
1.09339999999983,142.891,13.9721,1.23789,5.11472,,,,,,
1.09549999999983,143.361,14.9878,1.29111,4.58752,,,,,,
1.09759999999983,143.832,16.0035,1.34432,4.06031,,,,,,
1.09969999999983,144.302,17.0192,1.39754,3.53311,,,,,,
1.10179999999982,144.773,18.0349,1.45076,3.0059,,,,,,
1.10389999999982,145.243,19.0506,1.50397,2.4787,,,,,,
1.10599999999982,145.714,20.0663,1.55719,1.9515,,,,,,
1.10809999999982,146.184,21.082,1.61041,1.42429,,,,,,
1.11019999999982,145.969,21.6028,1.6282,1.05977,,,,,,
1.11229999999982,144.114,20.9394,1.56125,1.08454,,,,,,
1.11439999999982,142.258,20.276,1.49429,1.10931,,,,,,
1.11649999999981,140.403,19.6126,1.42733,1.13408,,,,,,
1.11859999999981,138.547,18.9492,1.36038,1.15884,,,,,,
1.12069999999981,136.692,18.2858,1.29342,1.18361,,,,,,
1.12279999999981,134.836,17.6224,1.22646,1.20838,,,,,,
1.12489999999981,132.981,16.959,1.15951,1.23315,,,,,,
1.12699999999981,131.125,16.2956,1.09255,1.25792,,,,,,
1.12909999999981,129.27,15.6322,1.0256,1.28268,,,,,,
1.13119999999981,127.415,14.9688,0.95864,1.30745,,,,,,
1.1332999999998,125.559,14.3054,0.891684,1.33222,,,,,,
1.1353999999998,123.704,13.642,0.824728,1.35699,,,,,,
1.1374999999998,121.848,12.9786,0.757772,1.38175,,,,,,
1.1395999999998,120.026,12.315,0.691089,1.41394,,,,,,
1.1416999999998,122.444,11.6283,0.659176,2.3926,,,,,,
1.1437999999998,124.862,10.9416,0.627261,3.37131,,,,,,
1.1458999999998,127.28,10.2549,0.595349,4.34996,,,,,,
1.14799999999979,129.698,9.56814,0.563436,5.32862,,,,,,
1.15009999999979,132.116,8.88143,0.531523,6.30728,,,,,,
1.15219999999979,134.534,8.19473,0.499611,7.28593,,,,,,
1.15429999999979,136.952,7.50802,0.467698,8.26459,,,,,,
1.15639999999979,139.37,6.82131,0.435785,9.24324,,,,,,
1.15849999999979,141.788,6.1346,0.403872,10.2219,,,,,,
1.16059999999979,144.206,5.44789,0.37196,11.2006,,,,,,
1.16269999999979,146.624,4.76118,0.340047,12.1792,,,,,,
1.16479999999978,149.042,4.07447,0.308134,13.1579,,,,,,
1.16689999999978,151.46,3.38776,0.276222,14.1365,,,,,,
1.16899999999978,153.878,2.70105,0.244309,15.1152,,,,,,
1.17109999999978,154.795,3.34312,0.291806,14.9297,,,,,,
1.17319999999978,155.135,4.49527,0.369787,14.2975,,,,,,
1.17529999999978,155.476,5.64735,0.447763,13.6652,,,,,,
1.17739999999978,155.816,6.79943,0.525739,13.033,,,,,,
1.17949999999977,156.157,7.95152,0.603715,12.4007,,,,,,
1.18159999999977,156.497,9.1036,0.681692,11.7685,,,,,,
1.18369999999977,156.838,10.2557,0.759668,11.1362,,,,,,
1.18579999999977,157.178,11.4078,0.837644,10.504,,,,,,
1.18789999999977,157.519,12.5598,0.91562,9.87173,,,,,,
1.18999999999977,157.859,13.7119,0.993597,9.23949,,,,,,
1.19209999999977,158.2,14.864,1.07157,8.60724,,,,,,
1.19419999999977,158.54,16.0161,1.14955,7.975,,,,,,
1.19629999999976,158.88,17.1682,1.22753,7.34275,,,,,,
1.19839999999976,159.221,18.3203,1.3055,6.7105,,,,,,
1.20049999999976,158.724,18.6278,1.30896,6.56067,,,,,,
1.20259999999976,157.15,17.8495,1.21661,7.03102,,,,,,
1.20469999999976,155.576,17.0712,1.12427,7.50138,,,,,,
1.20679999999976,154.002,16.2929,1.03193,7.97173,,,,,,
1.20889999999976,152.428,15.5146,0.939585,8.44208,,,,,,
1.21099999999975,150.854,14.7363,0.847241,8.91243,,,,,,
1.21309999999975,149.28,13.958,0.754898,9.38279,,,,,,
1.21519999999975,147.706,13.1798,0.662555,9.85314,,,,,,
1.21729999999975,146.132,12.4015,0.570211,10.3235,,,,,,
1.21939999999975,144.558,11.6232,0.477868,10.7938,,,,,,
1.22149999999975,142.984,10.8449,0.385525,11.2642,,,,,,
1.22359999999975,141.41,10.0666,0.293182,11.7346,,,,,,
1.22569999999975,139.836,9.28833,0.200838,12.2049,,,,,,
1.22779999999974,138.262,8.51,0.10849,12.6753,,,,,,
1.22989999999974,137.117,7.78878,0.0472435,13.0505,,,,,,
1.23199999999974,138.393,7.38942,0.161385,12.8892,,,,,,
1.23409999999974,139.67,6.99006,0.275527,12.7279,,,,,,
1.23619999999974,140.946,6.5907,0.389669,12.5666,,,,,,
1.23829999999974,142.222,6.19133,0.503811,12.4053,,,,,,
1.24039999999974,143.498,5.79197,0.617952,12.2439,,,,,,
1.24249999999973,144.774,5.39261,0.732094,12.0826,,,,,,
1.24459999999973,146.05,4.99325,0.846236,11.9213,,,,,,
1.24669999999973,147.326,4.59389,0.960378,11.76,,,,,,
1.24879999999973,148.602,4.19452,1.07452,11.5987,,,,,,
1.25089999999973,149.878,3.79516,1.18866,11.4374,,,,,,
1.25299999999973,151.155,3.3958,1.3028,11.2761,,,,,,
1.25509999999973,152.431,2.99641,1.41695,11.1147,,,,,,
1.25719999999973,153.707,2.59705,1.53109,10.9534,,,,,,
1.25929999999972,154.983,2.19769,1.64524,10.7921,,,,,,
1.26139999999972,153.392,2.01444,1.58153,10.9922,,60.5604,,,,
1.26349999999972,151.356,1.86479,1.49018,11.2486,,60.5679,,,,
1.26559999999972,149.319,1.71514,1.39883,11.5049,,60.6642,,,,
1.26769999999972,147.283,1.56549,1.30747,11.7612,,60.7605,,,,
1.26979999999972,145.246,1.41584,1.21612,12.0175,,60.8567,,,,
1.27189999999972,143.21,1.26619,1.12477,12.2738,,60.953,,,,
1.27399999999971,141.173,1.11654,1.03342,12.5301,,61.0493,,,,
1.27609999999971,139.137,0.966884,0.942066,12.7864,,61.1455,,,,
1.27819999999971,137.1,0.817232,0.850714,13.0427,,61.2418,,,,
1.28029999999971,135.064,0.667581,0.759363,13.299,,61.3381,,,,
1.28239999999971,133.027,0.517921,0.668005,13.5553,,61.4344,,,,
1.28449999999971,130.991,0.36827,0.576653,13.8117,,61.5306,,,,
1.28659999999971,128.954,0.218618,0.485302,14.068,,61.6269,,,,
1.2886999999997,126.918,0.0689667,0.39395,14.3243,,61.7232,,,,
1.2907999999997,126.701,0.596172,0.480688,14.3353,,61.8195,,,,
1.2928999999997,127.799,1.61286,0.696216,14.1691,,61.9157,,,,
1.2949999999997,128.898,2.62955,0.911744,14.0028,,61.9775,,,,
1.2970999999997,129.996,3.64624,1.12727,13.8365,,62.0302,,,,
1.2991999999997,131.095,4.66293,1.3428,13.6702,,62.083,,,,
1.3012999999997,132.193,5.67962,1.55833,13.5039,,62.1357,,,,
1.3033999999997,133.292,6.69631,1.77386,13.3376,,62.1885,,,,
1.30549999999969,134.39,7.713,1.98938,13.1713,,62.2412,,,,
1.30759999999969,135.489,8.72969,2.20491,13.005,,62.294,,,,
1.30969999999969,136.588,9.74644,2.42045,12.8387,,62.3468,,,,
1.31179999999969,137.686,10.7631,2.63598,12.6724,,62.3995,,,,
1.31389999999969,138.785,11.7798,2.85151,12.5062,,62.4523,,,,
1.31599999999969,139.883,12.7965,3.06704,12.3399,,62.505,,,,
1.31809999999969,140.982,13.8132,3.28257,12.1736,,62.5578,,,,
1.32019999999968,141.286,14.5368,3.42292,12.0079,,62.6105,,,,
1.32229999999968,139.675,14.5546,3.38222,11.8436,,62.6633,,,,
1.32439999999968,138.065,14.5724,3.34152,11.6793,,62.624,,,,
1.32649999999968,136.455,14.5902,3.30081,11.5149,,62.4955,,,,
1.32859999999968,134.844,14.608,3.26011,11.3506,,62.3671,,,,
1.33069999999968,133.234,14.6258,3.21941,11.1863,,62.2386,,,,
1.33279999999968,131.624,14.6436,3.1787,11.022,,62.1101,,,,
1.33489999999968,130.013,14.6614,3.138,10.8577,,61.9817,,,,
1.33699999999967,128.403,14.6792,3.09729,10.6934,,61.8532,,,,
1.33909999999967,126.793,14.697,3.05659,10.5291,,61.7247,,,,
1.34119999999967,125.182,14.7147,3.01589,10.3648,,61.5963,,,,
1.34329999999967,123.572,14.7325,2.97518,10.2005,,61.4678,,,,
1.34539999999967,121.962,14.7503,2.93448,10.0362,,61.3393,,,,
1.34749999999967,120.351,14.7681,2.89378,9.87185,,61.2109,,,,
1.34959999999967,118.768,14.7897,2.85287,9.70621,,61.0824,,,,
1.35169999999966,120.444,15.2681,2.78725,9.38031,,60.9539,,,,
1.35379999999966,122.12,15.7465,2.72164,9.05441,,60.8149,,,,
1.35589999999966,123.797,16.2249,2.65603,8.72851,,60.6389,,,,
1.35799999999966,125.473,16.7034,2.59041,8.40261,,60.4628,,,,
1.36009999999966,127.149,17.1818,2.5248,8.0767,,60.2867,,,,
1.36219999999966,128.826,17.6602,2.45919,7.7508,,60.1106,,,,
1.36429999999966,130.502,18.1386,2.39357,7.42488,,59.9345,,,,
1.36639999999966,132.178,18.6171,2.32796,7.09898,,59.7584,,,,
1.36849999999965,133.854,19.0955,2.26234,6.77308,,59.5824,,,,
1.37059999999965,135.531,19.5739,2.19673,6.44718,,59.4063,,,,
1.37269999999965,137.207,20.0523,2.13112,6.12128,,59.2302,,,,
1.37479999999965,138.883,20.5307,2.0655,5.79537,,59.0541,,,,
1.37689999999965,140.56,21.0091,1.99989,5.46947,,58.878,,,,
1.37899999999965,142.236,21.4876,1.93428,5.14357,,58.702,,,,
1.38109999999965,143.741,21.247,1.97559,4.86726,,58.5259,,,,
1.38319999999964,145.181,20.7312,2.05785,4.60995,,58.3498,,,,
1.38529999999964,146.621,20.2153,2.14011,4.35263,,58.4938,,,,
1.38739999999964,148.061,19.6994,2.22237,4.09531,,58.6598,,,,
1.38949999999964,149.502,19.1836,2.30463,3.838,,58.8258,,,,
1.39159999999964,150.942,18.6677,2.38689,3.58068,,58.9919,,,,
1.39369999999964,152.382,18.1518,2.46916,3.32335,,59.1579,,,,
1.39579999999964,153.822,17.636,2.55142,3.06604,,59.3239,,,,
1.39789999999964,155.262,17.1201,2.63368,2.80872,,59.4899,,,,
1.39999999999963,156.702,16.6043,2.71594,2.5514,,59.6559,,,,
1.40209999999963,158.142,16.0884,2.7982,2.29409,,59.822,,,,
1.40419999999963,159.582,15.5726,2.88046,2.03677,,59.988,,,,
1.40629999999963,161.022,15.0567,2.96272,1.77945,,60.154,,,,
1.40839999999963,162.462,14.5408,3.04499,1.52214,,60.32,,,,
1.41049999999963,162.667,14.2185,3.01335,1.79711,,60.4861,,,,
1.41259999999963,161.274,14.1463,2.83446,2.76026,,60.6521,,,,
1.41469999999962,159.881,14.0741,2.65557,3.72341,,60.8297,,,,
1.41679999999962,158.489,14.0019,2.47669,4.68656,,61.0136,,,,
1.41889999999962,157.096,13.9297,2.2978,5.64971,,61.1975,,,,
1.42099999999962,155.703,13.8575,2.1189,6.61291,,61.3813,,,,
1.42309999999962,154.311,13.7854,1.94001,7.57606,,61.5652,,,,
1.42519999999962,152.918,13.7132,1.76112,8.53921,,61.7491,,,,
1.42729999999962,151.525,13.641,1.58224,9.50235,,61.933,,,,
1.42939999999962,150.133,13.5688,1.40335,10.4655,,62.1169,,,,
1.43149999999961,148.74,13.4966,1.22446,11.4287,,62.3007,,,,
1.43359999999961,147.347,13.4244,1.04557,12.3918,,62.4846,,,,
1.43569999999961,145.955,13.3522,0.866684,13.3549,,62.6685,,,,
1.43779999999961,144.562,13.2801,0.687796,14.3181,,62.8524,,,,
1.43989999999961,143.593,13.6235,0.543731,15.1606,,63.0362,,,,
1.44199999999961,145.009,16.3037,0.595462,15.325,,63.2201,,,,
1.44409999999961,146.425,18.9839,0.647193,15.4893,,63.4003,,,,
1.4461999999996,147.84,21.6642,0.698924,15.6537,,63.5739,,,,
1.4482999999996,149.256,24.3445,0.750657,15.818,,63.7475,,,,
1.4503999999996,150.672,27.0247,0.802388,15.9824,,63.9211,,,,
1.4524999999996,152.087,29.705,0.854119,16.1467,,64.0947,,,,
1.4545999999996,153.503,32.3852,0.90585,16.3111,,64.2684,,,,
1.4566999999996,154.919,35.0654,0.957581,16.4754,,64.442,,,,
1.4587999999996,156.334,37.7457,1.00931,16.6398,,64.6156,,,,
1.46089999999959,157.75,40.4259,1.06104,16.8041,,64.7892,,,,
1.46299999999959,159.166,43.1061,1.11277,16.9685,,64.9628,,,,
1.46509999999959,160.581,45.7863,1.1645,17.1328,,65.1365,,,,
1.46719999999959,161.997,48.4666,1.21624,17.2972,,65.3101,,,,
1.46929999999959,163.413,51.1468,1.26797,17.4615,,65.4837,,,,
1.47139999999959,162.859,49.7515,1.2065,16.4804,,65.6573,,,,
1.47349999999959,162,47.7249,1.1275,15.3218,,65.8223,,,,
1.47559999999959,161.141,45.6981,1.0485,14.1632,,65.8856,,,,
1.47769999999958,160.282,43.6715,0.9695,13.0046,,65.9489,,,,
1.47979999999958,159.424,41.6448,0.8905,11.846,,66.0121,,,,
1.48189999999958,158.565,39.6182,0.8115,10.6874,,66.0754,,,,
1.48399999999958,157.706,37.5916,0.732501,9.52883,,66.1387,,,,
1.48609999999958,156.847,35.5649,0.653501,8.37025,,66.202,,,,
1.48819999999958,155.988,33.5383,0.574501,7.21167,,66.2652,,,,
1.49029999999958,155.129,31.5117,0.495502,6.05309,,66.3285,,,,
1.49239999999957,154.271,29.485,0.416502,4.89451,,66.3918,,,,
1.49449999999957,153.412,27.4584,0.337502,3.73593,,66.4551,,,,
1.49659999999957,152.553,25.4317,0.258503,2.57735,,66.5184,,,,
1.49869999999957,151.694,23.4051,0.179503,1.41877,,66.5816,,,,
1.50079999999957,151.277,21.7275,0.25488,1.21614,,66.6449,,,,
1.50289999999957,151.182,20.3036,0.442561,1.7089,,66.7082,,,,
1.50499999999957,151.086,18.8799,0.630231,2.20163,,66.7799,,,,
1.50709999999957,150.991,17.4561,0.817901,2.69435,,66.8539,,,,
1.50919999999956,150.895,16.0324,1.00557,3.18708,,66.9278,,,,
1.51129999999956,150.8,14.6086,1.19324,3.67981,,67.0018,,,,
1.51339999999956,150.705,13.1849,1.38091,4.17253,,67.0757,,,,
1.51549999999956,150.609,11.7611,1.56858,4.66526,,67.1496,,,,
1.51759999999956,150.514,10.3374,1.75625,5.15799,,67.2236,,,,
1.51969999999956,150.418,8.91365,1.94392,5.65071,,67.2975,,,,
1.52179999999956,150.323,7.4899,2.13159,6.14344,,67.3715,,,,
1.52389999999955,150.227,6.06615,2.31926,6.63616,,67.4454,,,,
1.52599999999955,150.132,4.6424,2.50693,7.12889,,67.5194,,,,
1.52809999999955,150.036,3.21865,2.6946,7.62162,,67.5933,,,,
1.53019999999955,149.764,2.40281,2.83031,7.81476,,67.6673,,,,
1.53229999999955,149.065,3.04827,2.84108,7.28777,,67.7412,,,,
1.53439999999955,148.365,3.69374,2.85186,6.76079,,67.8016,,,,
1.53649999999955,147.666,4.3392,2.86264,6.2338,,67.8488,,,,
1.53859999999955,146.967,4.98467,2.87341,5.70682,,67.896,,,,
1.54069999999954,146.268,5.63013,2.88419,5.17983,,67.9432,,,,
1.54279999999954,145.569,6.2756,2.89496,4.65285,,67.9904,,,,
1.54489999999954,144.87,6.92106,2.90574,4.12586,,68.0376,,,,
1.54699999999954,144.171,7.56652,2.91652,3.59888,,68.0848,,,,
1.54909999999954,143.471,8.21199,2.92729,3.07189,,68.132,,,,
1.55119999999954,142.772,8.85745,2.93807,2.54491,,68.1793,,,,
