"Wavelength, nm",MOP-1-2 NaCl whole,MOP-1-4 NaCl whole,MOP-2-2 NaCl whole,MOP-2-4 NaCl whole,MOP-3-2 NaCl whole,MOP-3-4 NaCl whole,MOP-3-6 NaCl whole,MOP-4-2 NaCl whole,MOP-4-3 NaCl whole,MCC-1A-3 NaCl whole,MCC-3-3 NaCl whole,MCC-3-6 NaCl whole,MCC-5-2 NaCl whole,MCC-5-4 NaCl whole,MCC-5-5 NaCl whole,MOP-1-2 PP-SPE,MOP-1-4 PP-SPE,MOP-2-2 PP-SPE,MOP-2-4 PP-SPE,MOP-3-2 PP-SPE,MOP-3-4 PP-SPE,MOP-3-6 PP-SPE,MOP-4-2 PP-SPE,MOP-4-3 PP-SPE,MCC-1A-3 PP-SPE,MCC-3-3 PP-SPE,MCC-3-6 PP-SPE,MCC-5-2 PP-SPE,MCC-5-4 PP-SPE,MCC-5-5 PP-SPE
200,5.364,8.712,7.539,10.666,5.887,10.130,11.622,12.314,13.108,9.946,10.932,10.686,12.708,10.745,12.474,10.791,10.078,9.489,10.008,10.867,11.016,12.341,11.891,9.472,9.202,8.371,10.544,10.070,10.754,11.189
201,4.806,6.443,6.787,7.390,5.223,7.691,8.807,9.566,8.904,8.116,8.544,9.092,8.919,7.414,8.428,10.438,9.880,9.404,9.853,10.740,10.913,12.269,11.803,9.305,9.126,8.269,9.949,9.976,10.688,11.118
202,4.500,5.173,6.336,5.601,4.815,6.197,7.050,7.928,6.595,7.107,7.146,8.134,6.837,5.593,6.189,10.673,9.700,9.324,9.726,10.641,10.809,12.208,11.558,9.193,9.048,8.181,9.889,9.897,10.633,11.058
203,4.283,4.455,6.079,4.677,4.576,5.384,6.090,7.004,5.302,6.574,6.358,7.584,5.705,4.550,5.048,10.780,9.551,9.263,9.618,10.563,10.723,12.143,11.464,9.114,8.966,8.108,9.915,9.827,10.573,10.993
204,4.116,3.894,5.807,3.775,4.377,4.750,5.339,6.353,4.286,6.004,5.792,7.176,4.793,3.806,3.978,10.506,9.412,9.185,9.500,10.458,10.622,12.068,11.342,9.026,8.890,8.029,9.777,9.758,10.507,10.925
205,3.969,3.412,5.592,3.128,4.214,4.263,4.732,5.769,3.501,5.618,5.292,6.829,4.071,3.177,3.234,10.511,9.258,9.095,9.374,10.364,10.519,11.977,11.208,8.922,8.800,7.941,9.642,9.650,10.427,10.847
206,3.869,3.149,5.445,2.765,4.102,3.970,4.375,5.448,3.073,5.361,5.017,6.621,3.663,2.816,2.842,10.586,9.130,9.018,9.260,10.259,10.413,11.879,11.092,8.821,8.714,7.863,9.611,9.568,10.349,10.772
207,3.781,2.956,5.317,2.509,4.011,3.762,4.118,5.217,2.765,5.169,4.811,6.461,3.384,2.581,2.563,10.301,9.007,8.933,9.157,10.159,10.309,11.777,10.968,8.709,8.637,7.784,9.499,9.473,10.262,10.688
208,3.720,2.839,5.228,2.355,3.949,3.633,3.960,5.079,2.593,5.048,4.695,6.364,3.230,2.444,2.410,10.984,8.915,8.866,9.079,10.080,10.225,11.697,10.861,8.629,8.571,7.721,9.393,9.404,10.197,10.626
209,3.656,2.732,5.134,2.209,3.882,3.511,3.812,4.950,2.434,4.924,4.581,6.261,3.095,2.324,2.279,9.904,8.813,8.791,8.986,9.993,10.130,11.592,10.728,8.537,8.490,7.655,9.300,9.319,10.119,10.547
210,3.605,2.658,5.063,2.121,3.831,3.431,3.709,4.863,2.332,4.840,4.499,6.196,3.002,2.244,2.194,9.904,8.728,8.712,8.906,9.926,10.049,11.512,10.628,8.458,8.428,7.597,9.200,9.245,10.054,10.483
211,3.549,2.584,4.978,2.030,3.771,3.356,3.612,4.776,2.234,4.747,4.424,6.121,2.916,2.171,2.111,9.881,8.640,8.635,8.828,9.834,9.955,11.407,10.503,8.376,8.346,7.532,9.123,9.167,9.976,10.409
212,3.488,2.529,4.911,1.960,3.720,3.294,3.534,4.701,2.160,4.674,4.360,6.059,2.852,2.118,2.050,9.618,8.559,8.557,8.754,9.752,9.870,11.313,10.411,8.300,8.280,7.470,9.034,9.097,9.904,10.337
213,3.428,2.473,4.829,1.887,3.658,3.222,3.458,4.629,2.091,4.589,4.294,5.991,2.788,2.066,1.998,9.633,8.472,8.469,8.672,9.661,9.776,11.191,10.265,8.192,8.192,7.400,8.943,9.012,9.821,10.261
214,3.379,2.423,4.753,1.828,3.600,3.170,3.384,4.564,2.026,4.515,4.231,5.927,2.731,2.019,1.947,10.296,8.371,8.380,8.590,9.558,9.667,11.082,10.139,8.094,8.112,7.333,8.866,8.926,9.735,10.179
215,3.323,2.379,4.676,1.769,3.542,3.112,3.321,4.515,1.962,4.441,4.169,5.858,2.680,1.973,1.900,10.538,8.293,8.282,8.497,9.465,9.573,10.963,10.022,8.011,8.024,7.265,8.784,8.837,9.658,10.093
216,3.267,2.334,4.608,1.717,3.491,3.058,3.264,4.456,1.906,4.369,4.113,5.801,2.629,1.936,1.860,9.529,8.212,8.194,8.418,9.366,9.477,10.845,9.904,7.911,7.936,7.196,8.679,8.752,9.568,10.015
217,3.207,2.292,4.525,1.663,3.426,3.004,3.200,4.393,1.855,4.292,4.054,5.724,2.576,1.894,1.822,9.897,8.126,8.084,8.332,9.256,9.369,10.713,9.749,7.816,7.842,7.114,8.588,8.656,9.478,9.927
218,3.150,2.252,4.450,1.615,3.368,2.953,3.141,4.338,1.811,4.221,3.995,5.655,2.532,1.855,1.782,9.256,8.045,7.985,8.240,9.149,9.263,10.588,9.629,7.711,7.750,7.040,8.486,8.572,9.384,9.845
219,3.098,2.220,4.382,1.572,3.317,2.907,3.088,4.286,1.767,4.157,3.943,5.588,2.492,1.825,1.751,9.093,7.966,7.891,8.162,9.049,9.169,10.477,9.514,7.623,7.669,6.968,8.416,8.491,9.306,9.768
220,3.044,2.189,4.315,1.538,3.267,2.865,3.040,4.234,1.724,4.095,3.890,5.522,2.448,1.793,1.719,9.308,7.888,7.799,8.081,8.955,9.073,10.364,9.373,7.539,7.585,6.898,8.323,8.407,9.223,9.689
221,2.999,2.162,4.251,1.499,3.223,2.822,2.996,4.190,1.693,4.037,3.839,5.458,2.413,1.763,1.691,8.733,7.813,7.716,8.012,8.873,8.987,10.260,9.276,7.457,7.514,6.827,8.241,8.333,9.146,9.618
222,2.945,2.127,4.180,1.468,3.176,2.782,2.947,4.140,1.657,3.975,3.786,5.390,2.373,1.736,1.666,8.715,7.738,7.625,7.933,8.770,8.894,10.150,9.153,7.374,7.425,6.752,8.149,8.250,9.061,9.535
223,2.894,2.096,4.117,1.431,3.130,2.739,2.903,4.094,1.626,3.921,3.734,5.320,2.342,1.710,1.643,8.761,7.658,7.539,7.858,8.687,8.800,10.043,9.047,7.296,7.348,6.682,8.060,8.169,8.979,9.453
224,2.844,2.071,4.049,1.402,3.085,2.694,2.865,4.046,1.601,3.860,3.687,5.249,2.300,1.680,1.616,8.503,7.581,7.459,7.781,8.600,8.710,9.938,8.933,7.210,7.268,6.609,7.970,8.089,8.897,9.371
225,2.798,2.040,3.987,1.375,3.044,2.658,2.827,4.000,1.565,3.806,3.638,5.187,2.272,1.655,1.591,8.494,7.512,7.383,7.710,8.519,8.627,9.846,8.834,7.136,7.201,6.545,7.882,8.018,8.821,9.294
226,2.746,2.008,3.919,1.352,2.998,2.624,2.793,3.959,1.542,3.749,3.589,5.114,2.239,1.635,1.578,8.471,7.430,7.305,7.632,8.429,8.541,9.740,8.727,7.055,7.117,6.474,7.794,7.934,8.738,9.206
227,2.700,1.979,3.859,1.320,2.955,2.585,2.755,3.908,1.524,3.692,3.538,5.050,2.208,1.609,1.553,8.385,7.351,7.229,7.560,8.354,8.452,9.642,8.626,6.975,7.044,6.403,7.715,7.857,8.660,9.119
228,2.652,1.944,3.797,1.293,2.911,2.544,2.715,3.864,1.498,3.633,3.487,4.983,2.166,1.589,1.528,8.273,7.270,7.151,7.485,8.269,8.363,9.540,8.510,6.898,6.968,6.331,7.620,7.778,8.575,9.026
229,2.608,1.915,3.739,1.275,2.869,2.511,2.683,3.817,1.480,3.580,3.444,4.921,2.144,1.568,1.513,8.183,7.188,7.078,7.415,8.191,8.277,9.444,8.417,6.816,6.895,6.259,7.540,7.697,8.495,8.938
230,2.566,1.886,3.683,1.254,2.830,2.475,2.650,3.769,1.454,3.526,3.401,4.862,2.117,1.548,1.493,8.013,7.111,7.012,7.342,8.111,8.196,9.351,8.314,6.745,6.827,6.196,7.470,7.623,8.414,8.850
231,2.527,1.851,3.630,1.239,2.793,2.446,2.620,3.731,1.439,3.477,3.360,4.806,2.086,1.532,1.480,7.971,7.032,6.943,7.271,8.039,8.111,9.262,8.222,6.670,6.761,6.132,7.381,7.549,8.338,8.761
232,2.486,1.827,3.577,1.220,2.752,2.416,2.591,3.688,1.426,3.427,3.320,4.748,2.062,1.514,1.470,7.847,6.950,6.873,7.198,7.963,8.025,9.164,8.121,6.591,6.692,6.065,7.297,7.471,8.261,8.671
233,2.458,1.801,3.539,1.211,2.726,2.394,2.572,3.657,1.416,3.392,3.289,4.703,2.042,1.500,1.455,7.799,6.894,6.827,7.147,7.906,7.966,9.095,8.047,6.541,6.644,6.017,7.245,7.414,8.201,8.603
234,2.422,1.772,3.488,1.193,2.688,2.360,2.544,3.613,1.401,3.343,3.252,4.649,2.022,1.484,1.445,7.712,6.814,6.758,7.080,7.829,7.883,9.008,7.949,6.459,6.576,5.955,7.157,7.336,8.124,8.510
235,2.383,1.741,3.435,1.182,2.650,2.334,2.512,3.570,1.390,3.293,3.208,4.589,1.998,1.469,1.435,7.625,6.722,6.684,6.997,7.748,7.791,8.902,7.844,6.389,6.509,5.883,7.078,7.263,8.042,8.410
236,2.345,1.702,3.384,1.155,2.612,2.299,2.475,3.515,1.360,3.244,3.165,4.530,1.965,1.439,1.410,7.541,6.646,6.615,6.922,7.676,7.703,8.801,7.746,6.310,6.441,5.814,6.991,7.175,7.953,8.305
237,2.310,1.676,3.336,1.132,2.576,2.268,2.447,3.465,1.357,3.197,3.123,4.471,1.938,1.433,1.402,7.452,6.562,6.544,6.848,7.595,7.618,8.704,7.645,6.232,6.372,5.749,6.906,7.094,7.865,8.206
238,2.274,1.639,3.286,1.123,2.537,2.234,2.411,3.415,1.334,3.148,3.080,4.412,1.912,1.415,1.385,7.364,6.475,6.473,6.768,7.513,7.526,8.599,7.539,6.153,6.299,5.679,6.820,7.007,7.776,8.098
239,2.242,1.607,3.244,1.102,2.505,2.199,2.386,3.373,1.308,3.100,3.043,4.362,1.883,1.393,1.357,7.292,6.405,6.409,6.699,7.446,7.449,8.510,7.451,6.088,6.240,5.618,6.747,6.932,7.696,8.007
240,2.206,1.572,3.193,1.073,2.465,2.163,2.346,3.327,1.295,3.051,2.993,4.299,1.850,1.372,1.349,7.199,6.316,6.334,6.617,7.362,7.353,8.400,7.348,6.004,6.166,5.543,6.659,6.843,7.601,7.899
241,2.174,1.546,3.149,1.062,2.433,2.141,2.320,3.283,1.283,3.006,2.950,4.245,1.830,1.354,1.329,7.114,6.241,6.270,6.545,7.289,7.274,8.304,7.253,5.931,6.102,5.479,6.576,6.767,7.518,7.801
242,2.144,1.513,3.108,1.043,2.399,2.107,2.285,3.238,1.257,2.966,2.912,4.196,1.801,1.338,1.312,7.041,6.168,6.207,6.475,7.218,7.192,8.212,7.165,5.863,6.040,5.417,6.504,6.688,7.434,7.708
243,2.112,1.482,3.062,1.018,2.364,2.075,2.242,3.181,1.242,2.917,2.870,4.135,1.777,1.306,1.302,6.965,6.087,6.133,6.396,7.137,7.102,8.108,7.069,5.791,5.969,5.344,6.414,6.601,7.343,7.601
244,2.084,1.461,3.028,1.012,2.334,2.053,2.211,3.146,1.236,2.882,2.832,4.089,1.744,1.298,1.282,6.883,6.022,6.076,6.335,7.072,7.032,8.027,6.987,5.729,5.915,5.288,6.350,6.535,7.270,7.519
245,2.057,1.424,2.991,0.994,2.306,2.022,2.181,3.102,1.208,2.845,2.799,4.040,1.731,1.281,1.264,6.827,5.959,6.021,6.273,7.010,6.962,7.946,6.912,5.672,5.858,5.231,6.274,6.466,7.195,7.432
246,2.032,1.404,2.957,0.971,2.279,1.997,2.160,3.059,1.190,2.808,2.761,3.992,1.707,1.267,1.241,6.767,5.901,5.967,6.215,6.955,6.899,7.872,6.845,5.619,5.805,5.179,6.210,6.401,7.124,7.355
247,2.008,1.371,2.924,0.953,2.253,1.973,2.122,3.013,1.177,2.767,2.719,3.945,1.671,1.251,1.229,6.706,5.843,5.916,6.157,6.898,6.830,7.795,6.779,5.564,5.755,5.123,6.146,6.341,7.053,7.279
248,1.983,1.349,2.891,0.928,2.229,1.934,2.074,2.967,1.159,2.727,2.684,3.894,1.616,1.217,1.196,6.659,5.789,5.868,6.104,6.843,6.772,7.729,6.712,5.515,5.705,5.071,6.084,6.282,6.986,7.195
249,1.967,1.354,2.867,0.939,2.209,1.934,2.076,2.945,1.144,2.711,2.665,3.867,1.647,1.211,1.186,6.607,5.747,5.831,6.058,6.800,6.729,7.675,6.663,5.476,5.666,5.031,6.036,6.237,6.941,7.148
250,1.941,1.319,2.830,0.903,2.183,1.904,2.034,2.892,1.124,2.670,2.619,3.813,1.618,1.197,1.179,6.565,5.687,5.785,6.005,6.748,6.667,7.605,6.602,5.426,5.615,4.976,5.967,6.171,6.867,7.071
251,1.921,1.301,2.804,0.885,2.162,1.880,2.008,2.851,1.116,2.639,2.592,3.774,1.594,1.184,1.158,6.515,5.642,5.743,5.957,6.705,6.620,7.551,6.552,5.387,5.572,4.929,5.919,6.125,6.813,7.010
252,1.903,1.288,2.778,0.871,2.143,1.861,1.985,2.814,1.106,2.612,2.558,3.735,1.570,1.168,1.143,6.485,5.602,5.712,5.918,6.664,6.578,7.505,6.507,5.351,5.536,4.891,5.871,6.081,6.762,6.957
253,1.889,1.275,2.758,0.857,2.127,1.843,1.970,2.783,1.090,2.588,2.533,3.704,1.559,1.154,1.131,6.451,5.572,5.686,5.887,6.638,6.543,7.469,6.477,5.327,5.511,4.857,5.830,6.047,6.724,6.915
254,1.870,1.250,2.731,0.839,2.107,1.817,1.943,2.740,1.065,2.558,2.497,3.663,1.526,1.132,1.108,6.412,5.535,5.651,5.846,6.600,6.504,7.422,6.435,5.292,5.471,4.819,5.785,6.004,6.677,6.862
255,1.855,1.240,2.709,0.844,2.089,1.804,1.924,2.713,1.059,2.534,2.475,3.636,1.526,1.128,1.101,6.385,5.501,5.627,5.816,6.568,6.471,7.390,6.402,5.266,5.444,4.786,5.749,5.969,6.637,6.819
256,1.838,1.227,2.682,0.828,2.071,1.782,1.903,2.672,1.041,2.508,2.452,3.591,1.495,1.120,1.088,6.356,5.461,5.595,5.780,6.535,6.433,7.349,6.363,5.231,5.408,4.747,5.698,5.927,6.587,6.770
257,1.818,1.212,2.658,0.819,2.052,1.768,1.871,2.643,1.029,2.483,2.421,3.550,1.470,1.100,1.078,6.318,5.424,5.567,5.738,6.503,6.392,7.305,6.327,5.200,5.374,4.705,5.651,5.890,6.550,6.723
258,1.800,1.192,2.631,0.798,2.032,1.753,1.861,2.608,1.039,2.454,2.395,3.504,1.466,1.091,1.065,6.291,5.386,5.539,5.704,6.466,6.358,7.256,6.290,5.171,5.342,4.667,5.608,5.850,6.504,6.680
259,1.781,1.173,2.602,0.783,2.008,1.722,1.827,2.554,1.016,2.420,2.357,3.457,1.437,1.067,1.043,6.247,5.348,5.504,5.663,6.426,6.318,7.217,6.251,5.137,5.302,4.622,5.560,5.808,6.458,6.630
260,1.761,1.160,2.574,0.769,1.987,1.702,1.818,2.519,0.995,2.395,2.326,3.430,1.428,1.041,1.020,6.213,5.306,5.474,5.622,6.387,6.275,7.177,6.210,5.098,5.270,4.585,5.514,5.766,6.411,6.581
261,1.745,1.150,2.547,0.778,1.967,1.700,1.802,2.495,1.003,2.371,2.301,3.396,1.409,1.049,1.025,6.177,5.269,5.445,5.590,6.354,6.240,7.140,6.178,5.071,5.238,4.551,5.465,5.730,6.370,6.539
262,1.720,1.125,2.512,0.751,1.940,1.665,1.766,2.440,0.972,2.333,2.262,3.344,1.380,1.027,0.993,6.135,5.221,5.402,5.542,6.309,6.189,7.085,6.124,5.033,5.189,4.501,5.413,5.679,6.313,6.481
263,1.697,1.107,2.476,0.735,1.914,1.644,1.745,2.394,0.967,2.299,2.227,3.297,1.356,1.007,0.975,6.093,5.170,5.363,5.493,6.266,6.142,7.033,6.081,4.989,5.149,4.453,5.354,5.629,6.261,6.425
264,1.674,1.092,2.442,0.735,1.888,1.627,1.726,2.357,0.959,2.268,2.197,3.251,1.344,0.996,0.970,6.040,5.119,5.320,5.442,6.215,6.088,6.978,6.031,4.949,5.103,4.404,5.288,5.579,6.206,6.368
265,1.650,1.069,2.406,0.710,1.859,1.592,1.698,2.305,0.939,2.232,2.154,3.200,1.309,0.974,0.942,5.988,5.069,5.275,5.393,6.166,6.032,6.920,5.978,4.907,5.052,4.352,5.235,5.526,6.147,6.304
266,1.625,1.052,2.370,0.703,1.831,1.571,1.679,2.265,0.923,2.198,2.123,3.153,1.289,0.960,0.927,5.926,5.013,5.228,5.341,6.110,5.980,6.863,5.926,4.861,5.006,4.301,5.168,5.470,6.085,6.247
267,1.598,1.034,2.330,0.692,1.800,1.549,1.650,2.213,0.911,2.157,2.080,3.099,1.263,0.938,0.907,5.862,4.953,5.176,5.281,6.050,5.919,6.794,5.865,4.810,4.952,4.243,5.097,5.408,6.022,6.178
268,1.579,1.019,2.301,0.685,1.777,1.531,1.631,2.184,0.903,2.130,2.061,3.062,1.250,0.932,0.902,5.832,4.907,5.135,5.236,5.999,5.873,6.740,5.817,4.771,4.909,4.199,5.048,5.363,5.972,6.125
269,1.552,1.000,2.262,0.671,1.746,1.507,1.610,2.143,0.895,2.100,2.024,3.010,1.221,0.906,0.877,5.761,4.847,5.079,5.173,5.933,5.802,6.674,5.757,4.721,4.854,4.143,4.976,5.302,5.904,6.055
270,1.529,0.983,2.228,0.665,1.721,1.483,1.595,2.101,0.885,2.068,1.990,2.965,1.208,0.899,0.862,5.712,4.792,5.031,5.120,5.876,5.750,6.611,5.704,4.675,4.807,4.090,4.919,5.251,5.848,6.001
271,1.505,0.968,2.190,0.649,1.691,1.470,1.578,2.071,0.875,2.040,1.960,2.924,1.194,0.891,0.859,5.636,4.728,4.976,5.061,5.818,5.684,6.542,5.638,4.624,4.750,4.036,4.852,5.192,5.784,5.933
272,1.481,0.959,2.152,0.651,1.663,1.448,1.561,2.034,0.872,2.009,1.928,2.878,1.179,0.875,0.852,5.581,4.665,4.916,4.997,5.745,5.620,6.468,5.571,4.570,4.696,3.982,4.785,5.135,5.719,5.871
273,1.456,0.939,2.116,0.637,1.634,1.426,1.536,1.997,0.864,1.980,1.895,2.833,1.155,0.857,0.832,5.503,4.602,4.862,4.933,5.676,5.550,6.397,5.507,4.515,4.637,3.927,4.721,5.076,5.651,5.807
274,1.434,0.922,2.084,0.628,1.607,1.402,1.515,1.962,0.844,1.948,1.867,2.793,1.144,0.843,0.822,5.447,4.544,4.809,4.877,5.617,5.490,6.333,5.449,4.468,4.591,3.879,4.660,5.019,5.593,5.742
275,1.413,0.912,2.052,0.628,1.583,1.388,1.498,1.936,0.847,1.924,1.842,2.759,1.124,0.835,0.814,5.383,4.488,4.757,4.826,5.557,5.434,6.268,5.392,4.422,4.541,3.833,4.604,4.967,5.538,5.688
276,1.396,0.897,2.025,0.619,1.562,1.370,1.485,1.911,0.836,1.906,1.823,2.726,1.108,0.827,0.809,5.339,4.443,4.714,4.775,5.501,5.385,6.212,5.343,4.384,4.500,3.792,4.554,4.922,5.489,5.636
277,1.373,0.884,1.991,0.617,1.537,1.353,1.468,1.885,0.834,1.877,1.796,2.689,1.097,0.819,0.799,5.265,4.380,4.655,4.715,5.438,5.318,6.142,5.277,4.329,4.446,3.742,4.496,4.870,5.422,5.573
278,1.353,0.871,1.962,0.608,1.514,1.336,1.456,1.857,0.826,1.851,1.772,2.655,1.080,0.804,0.781,5.215,4.329,4.607,4.663,5.381,5.264,6.080,5.221,4.286,4.398,3.698,4.442,4.819,5.374,5.520
279,1.336,0.860,1.936,0.603,1.492,1.317,1.445,1.846,0.821,1.834,1.755,2.622,1.075,0.802,0.784,5.152,4.282,4.557,4.617,5.326,5.211,6.027,5.176,4.245,4.362,3.659,4.395,4.776,5.326,5.468
280,1.313,0.848,1.902,0.597,1.465,1.295,1.420,1.813,0.803,1.800,1.722,2.584,1.051,0.776,0.759,5.090,4.223,4.504,4.558,5.263,5.148,5.954,5.111,4.196,4.308,3.612,4.339,4.719,5.261,5.409
281,1.294,0.834,1.875,0.585,1.443,1.283,1.396,1.787,0.788,1.777,1.704,2.557,1.049,0.786,0.774,5.033,4.168,4.452,4.505,5.204,5.090,5.890,5.054,4.147,4.260,3.569,4.285,4.671,5.207,5.354
282,1.270,0.822,1.838,0.590,1.415,1.273,1.380,1.752,0.800,1.749,1.673,2.511,1.020,0.776,0.746,4.956,4.102,4.389,4.435,5.128,5.019,5.810,4.981,4.094,4.203,3.517,4.220,4.609,5.137,5.285
283,1.246,0.787,1.805,0.565,1.387,1.239,1.348,1.713,0.777,1.719,1.647,2.474,1.005,0.746,0.739,4.891,4.044,4.331,4.373,5.058,4.953,5.736,4.919,4.041,4.150,3.469,4.167,4.548,5.071,5.217
284,1.225,0.784,1.773,0.563,1.361,1.221,1.340,1.691,0.777,1.695,1.620,2.441,0.980,0.748,0.734,4.826,3.984,4.273,4.312,4.991,4.884,5.662,4.851,3.985,4.097,3.422,4.108,4.491,5.014,5.157
285,1.201,0.778,1.739,0.553,1.335,1.209,1.319,1.667,0.770,1.670,1.599,2.408,0.980,0.728,0.721,4.749,3.920,4.212,4.251,4.919,4.819,5.589,4.787,3.932,4.044,3.374,4.044,4.433,4.951,5.089
286,1.179,0.759,1.706,0.547,1.307,1.185,1.297,1.638,0.754,1.641,1.568,2.367,0.963,0.720,0.701,4.685,3.858,4.151,4.185,4.848,4.747,5.512,4.712,3.875,3.988,3.325,3.990,4.373,4.883,5.026
287,1.157,0.741,1.676,0.524,1.282,1.165,1.274,1.603,0.741,1.612,1.539,2.333,0.938,0.703,0.686,4.611,3.798,4.095,4.127,4.782,4.684,5.435,4.646,3.823,3.939,3.280,3.932,4.316,4.821,4.959
288,1.135,0.726,1.645,0.517,1.257,1.148,1.257,1.582,0.731,1.587,1.519,2.300,0.927,0.693,0.686,4.543,3.741,4.038,4.065,4.714,4.613,5.361,4.583,3.771,3.884,3.234,3.877,4.256,4.757,4.897
289,1.112,0.709,1.610,0.501,1.230,1.124,1.232,1.551,0.718,1.556,1.490,2.262,0.907,0.677,0.661,4.474,3.681,3.972,4.003,4.639,4.544,5.280,4.507,3.710,3.823,3.185,3.819,4.195,4.688,4.824
290,1.091,0.703,1.581,0.495,1.206,1.109,1.221,1.531,0.723,1.535,1.468,2.232,0.896,0.679,0.656,4.407,3.624,3.916,3.941,4.573,4.479,5.205,4.442,3.660,3.774,3.145,3.766,4.140,4.629,4.763
291,1.068,0.689,1.549,0.492,1.181,1.092,1.198,1.509,0.716,1.508,1.446,2.198,0.885,0.665,0.651,4.331,3.561,3.850,3.880,4.495,4.409,5.124,4.374,3.600,3.717,3.094,3.708,4.076,4.558,4.695
292,1.051,0.678,1.524,0.485,1.161,1.078,1.183,1.485,0.711,1.489,1.431,2.171,0.874,0.657,0.648,4.274,3.514,3.801,3.828,4.437,4.353,5.057,4.312,3.557,3.672,3.058,3.661,4.032,4.508,4.643
293,1.032,0.669,1.495,0.485,1.138,1.065,1.169,1.466,0.700,1.465,1.409,2.140,0.861,0.647,0.638,4.201,3.458,3.747,3.770,4.369,4.290,4.985,4.250,3.504,3.619,3.016,3.609,3.978,4.447,4.581
294,1.010,0.654,1.465,0.467,1.116,1.043,1.139,1.435,0.687,1.441,1.377,2.105,0.841,0.635,0.623,4.133,3.402,3.689,3.709,4.301,4.226,4.910,4.183,3.449,3.565,2.969,3.554,3.918,4.375,4.512
295,0.993,0.642,1.441,0.463,1.097,1.027,1.126,1.420,0.680,1.419,1.363,2.076,0.832,0.629,0.618,4.079,3.353,3.634,3.660,4.240,4.165,4.842,4.123,3.402,3.516,2.931,3.505,3.870,4.323,4.455
296,0.978,0.627,1.419,0.458,1.079,1.010,1.112,1.400,0.662,1.400,1.340,2.055,0.815,0.614,0.606,4.021,3.310,3.593,3.616,4.190,4.118,4.784,4.079,3.363,3.477,2.897,3.464,3.824,4.275,4.407
297,0.962,0.622,1.397,0.447,1.063,1.000,1.099,1.383,0.659,1.383,1.324,2.029,0.812,0.610,0.593,3.972,3.268,3.546,3.571,4.137,4.065,4.729,4.021,3.321,3.435,2.863,3.424,3.779,4.225,4.360
298,0.947,0.608,1.374,0.436,1.045,0.983,1.082,1.357,0.659,1.361,1.305,2.002,0.795,0.598,0.588,3.911,3.224,3.499,3.523,4.083,4.015,4.664,3.973,3.278,3.391,2.826,3.380,3.732,4.175,4.308
299,0.932,0.601,1.352,0.433,1.027,0.973,1.070,1.344,0.644,1.343,1.287,1.977,0.782,0.588,0.580,3.867,3.179,3.454,3.480,4.028,3.965,4.606,3.921,3.235,3.350,2.790,3.338,3.687,4.123,4.256
300,0.920,0.587,1.335,0.424,1.016,0.961,1.061,1.335,0.639,1.329,1.272,1.959,0.773,0.582,0.570,3.827,3.150,3.422,3.446,3.990,3.927,4.567,3.887,3.201,3.318,2.764,3.307,3.655,4.085,4.220
301,0.907,0.584,1.318,0.424,1.002,0.953,1.049,1.324,0.641,1.313,1.261,1.940,0.764,0.582,0.573,3.785,3.114,3.381,3.406,3.944,3.886,4.517,3.843,3.170,3.283,2.737,3.270,3.616,4.048,4.178
302,0.892,0.572,1.297,0.415,0.985,0.942,1.034,1.298,0.634,1.295,1.240,1.914,0.753,0.570,0.558,3.733,3.071,3.339,3.365,3.893,3.836,4.458,3.794,3.128,3.241,2.700,3.229,3.570,3.999,4.127
303,0.879,0.566,1.277,0.408,0.972,0.934,1.025,1.291,0.623,1.281,1.227,1.893,0.746,0.566,0.558,3.686,3.034,3.297,3.322,3.844,3.790,4.407,3.749,3.091,3.202,2.668,3.187,3.532,3.956,4.083
